19,2,257,
2.5936874910000001000000000000000000000000e-071,-5.7966788994477075000000000000000000000000e-002,-1.0921842292083596000000000000000000000000e-001,-1.5480966181657776000000000000000000000000e-001,-1.9557469619835940000000000000000000000000e-001,-2.3218447985318696000000000000000000000000e-001,-2.6518655725391571000000000000000000000000e-001,-2.9503343263890486000000000000000000000000e-001,-3.2210322287716264000000000000000000000000e-001,-3.4671498374048193000000000000000000000000e-001,-3.6914027804038618000000000000000000000000e-001,-3.8961204038140757000000000000000000000000e-001,-4.0833146329620867000000000000000000000000e-001,-4.2547341249641957000000000000000000000000e-001,-4.4119073317740604000000000000000000000000e-001,-4.5561770948461794000000000000000000000000e-001,-4.6887286969712316000000000000000000000000e-001,-4.8106128045539426000000000000000000000000e-001,-4.9227643800924248000000000000000000000000e-001,-5.0260183873648656000000000000000000000000e-001,-5.1211229223169785000000000000000000000000e-001,-5.2087502614430792000000000000000000000000e-001,-5.2895062131370962000000000000000000000000e-001,-5.3639380766522204000000000000000000000000e-001,-5.4325414512799597000000000000000000000000e-001,-5.4957660903567196000000000000000000000000e-001,-5.5540209572593979000000000000000000000000e-001,-5.6076786111196242000000000000000000000000e-001,-5.6570790266899407000000000000000000000000e-001,-5.7025329342324083000000000000000000000000e-001,-5.7443247504158834000000000000000000000000e-001,-5.7827151592025428000000000000000000000000e-001,-5.8179433919658896000000000000000000000000e-001,-5.8502292481409723000000000000000000000000e-001,-5.8797748911985792000000000000000000000000e-001,-5.9067664493744931000000000000000000000000e-001,-5.9313754461496748000000000000000000000000e-001,-5.9537600817916003000000000000000000000000e-001,-5.9740663841914621000000000000000000000000e-001,-5.9924292446551297000000000000000000000000e-001,-6.0089733521387367000000000000000000000000e-001,-6.0238140375903737000000000000000000000000e-001,-6.0370580385097927000000000000000000000000e-001,-6.0488041925208602000000000000000000000000e-001,-6.0591440676282826000000000000000000000000e-001,-6.0681625358692437000000000000000000000000e-001,-6.0759382962461239000000000000000000000000e-001,-6.0825443521169165000000000000000000000000e-001,-6.0880484476075791000000000000000000000000e-001,-6.0925134670806058000000000000000000000000e-001,-6.0959978012342031000000000000000000000000e-001,-6.0985556830063659000000000000000000000000e-001,-6.1002374961091610000000000000000000000000e-001,-6.1010900587133787000000000000000000000000e-001,-6.1011568845362896000000000000000000000000e-001,-6.1004784233502496000000000000000000000000e-001,-6.0990922827230409000000000000000000000000e-001,-6.0970334326182385000000000000000000000000e-001,-6.0943343943224026000000000000000000000000e-001,-6.0910254150228194000000000000000000000000e-001,-6.0871346292323669000000000000000000000000e-001,-6.0826882081449885000000000000000000000000e-001,-6.0777104979043861000000000000000000000000e-001,-6.0722241476784333000000000000000000000000e-001,-6.0662502283511521000000000000000000000000e-001,-6.0598083425717630000000000000000000000000e-001,-6.0529167268353445000000000000000000000000e-001,-6.0455923462111794000000000000000000000000e-001,-6.0378509822821280000000000000000000000000e-001,-6.0297073148108360000000000000000000000000e-001,-6.0211749976054829000000000000000000000000e-001,-6.0122667290188547000000000000000000000000e-001,-6.0029943174791534000000000000000000000000e-001,-5.9933687424188165000000000000000000000000e-001,-5.9834002109384465000000000000000000000000e-001,-5.9730982105163044000000000000000000000000e-001,-5.9624715580495691000000000000000000000000e-001,-5.9515284454913908000000000000000000000000e-001,-5.9402764823275123000000000000000000000000e-001,-5.9287227351176708000000000000000000000000e-001,-5.9168737643099989000000000000000000000000e-001,-5.9047356585210442000000000000000000000000e-001,-5.8923140664597340000000000000000000000000e-001,-5.8796142266603979000000000000000000000000e-001,-5.8666409951779064000000000000000000000000e-001,-5.8533988713867990000000000000000000000000e-001,-5.8398920220160144000000000000000000000000e-001,-5.8261243035413424000000000000000000000000e-001,-5.8120992830489859000000000000000000000000e-001,-5.7978202576755322000000000000000000000000e-001,-5.7832902727221525000000000000000000000000e-001,-5.7685121385339577000000000000000000000000e-001,-5.7534884462290292000000000000000000000000e-001,-5.7382215823557337000000000000000000000000e-001,-5.7227137425514285000000000000000000000000e-001,-5.7069669442705961000000000000000000000000e-001,-5.6909830386457216000000000000000000000000e-001,-5.6747637215398328000000000000000000000000e-001,-5.6583105438455961000000000000000000000000e-001,-5.6416249210820546000000000000000000000000e-001,-5.6247081423365985000000000000000000000000e-001,-5.6075613785965184000000000000000000000000e-001,-5.5901856905114256000000000000000000000000e-001,-5.5725820356250477000000000000000000000000e-001,-5.5547512751122574000000000000000000000000e-001,-5.5366941800547798000000000000000000000000e-001,-5.5184114372867110000000000000000000000000e-001,-5.4999036548389457000000000000000000000000e-001,-5.4811713670095397000000000000000000000000e-001,-5.4622150390853119000000000000000000000000e-001,-5.4430350717381970000000000000000000000000e-001,-5.4236318051183108000000000000000000000000e-001,-5.4040055226642103000000000000000000000000e-001,-5.3841564546494391000000000000000000000000e-001,-5.3640847814831560000000000000000000000000e-001,-5.3437906367814636000000000000000000000000e-001,-5.3232741102249148000000000000000000000000e-001,-5.3025352502166623000000000000000000000000e-001,-5.2815740663546928000000000000000000000000e-001,-5.2603905317307453000000000000000000000000e-001,-5.2389845850676042000000000000000000000000e-001,-5.2173561327057227000000000000000000000000e-001,-5.1955050504493527000000000000000000000000e-001,-5.1734311852816994000000000000000000000000e-001,-5.1511343569579704000000000000000000000000e-001,-5.1286143594845746000000000000000000000000e-001,-5.1058709624922072000000000000000000000000e-001,-5.0829039125099951000000000000000000000000e-001,-5.0597129341474101000000000000000000000000e-001,-5.0362977311902213000000000000000000000000e-001,-5.0126579876162980000000000000000000000000e-001,-4.9887933685367114000000000000000000000000e-001,-4.9647035210672080000000000000000000000000e-001,-4.9403880751347690000000000000000000000000e-001,-4.9158466442236765000000000000000000000000e-001,-4.8910788260651777000000000000000000000000e-001,-4.8660842032745938000000000000000000000000e-001,-4.8408623439394233000000000000000000000000e-001,-4.8154128021617770000000000000000000000000e-001,-4.7897351185582426000000000000000000000000e-001,-4.7638288207200580000000000000000000000000e-001,-4.7376934236362939000000000000000000000000e-001,-4.7113284300825442000000000000000000000000e-001,-4.6847333309774647000000000000000000000000e-001,-4.6579076057093266000000000000000000000000e-001,-4.6308507224346185000000000000000000000000e-001,-4.6035621383505781000000000000000000000000e-001,-4.5760412999434075000000000000000000000000e-001,-4.5482876432138108000000000000000000000000e-001,-4.5203005938813717000000000000000000000000e-001,-4.4920795675691882000000000000000000000000e-001,-4.4636239699700825000000000000000000000000e-001,-4.4349331969956102000000000000000000000000e-001,-4.4060066349090105000000000000000000000000e-001,-4.3768436604431521000000000000000000000000e-001,-4.3474436409044742000000000000000000000000e-001,-4.3178059342638181000000000000000000000000e-001,-4.2879298892350221000000000000000000000000e-001,-4.2578148453420583000000000000000000000000e-001,-4.2274601329754485000000000000000000000000e-001,-4.1968650734386442000000000000000000000000e-001,-4.1660289789850052000000000000000000000000e-001,-4.1349511528459615000000000000000000000000e-001,-4.1036308892509032000000000000000000000000e-001,-4.0720674734393170000000000000000000000000e-001,-4.0402601816656153000000000000000000000000e-001,-4.0082082811971192000000000000000000000000e-001,-3.9759110303055778000000000000000000000000e-001,-3.9433676782526039000000000000000000000000e-001,-3.9105774652693803000000000000000000000000e-001,-3.8775396225309350000000000000000000000000e-001,-3.8442533721253019000000000000000000000000e-001,-3.8107179270178243000000000000000000000000e-001,-3.7769324910108637000000000000000000000000e-001,-3.7428962586991327000000000000000000000000e-001,-3.7086084154208793000000000000000000000000e-001,-3.6740681372051121000000000000000000000000e-001,-3.6392745907150431000000000000000000000000e-001,-3.6042269331879256000000000000000000000000e-001,-3.5689243123714276000000000000000000000000e-001,-3.5333658664566869000000000000000000000000e-001,-3.4975507240081738000000000000000000000000e-001,-3.4614780038904741000000000000000000000000e-001,-3.4251468151921061000000000000000000000000e-001,-3.3885562571464573000000000000000000000000e-001,-3.3517054190499357000000000000000000000000e-001,-3.3145933801774125000000000000000000000000e-001,-3.2772192096950220000000000000000000000000e-001,-3.2395819665703884000000000000000000000000e-001,-3.2016806994803343000000000000000000000000e-001,-3.1635144467161136000000000000000000000000e-001,-3.1250822360862263000000000000000000000000e-001,-3.0863830848168372000000000000000000000000e-001,-3.0474159994498468000000000000000000000000e-001,-3.0081799757386296000000000000000000000000e-001,-2.9686739985414740000000000000000000000000e-001,-2.9288970417127291000000000000000000000000e-001,-2.8888480679916922000000000000000000000000e-001,-2.8485260288892272000000000000000000000000e-001,-2.8079298645721390000000000000000000000000e-001,-2.7670585037452938000000000000000000000000e-001,-2.7259108635314983000000000000000000000000e-001,-2.6844858493491269000000000000000000000000e-001,-2.6427823547874923000000000000000000000000e-001,-2.6007992614799597000000000000000000000000e-001,-2.5585354389747839000000000000000000000000e-001,-2.5159897446036611000000000000000000000000e-001,-2.4731610233479842000000000000000000000000e-001,-2.4300481077027755000000000000000000000000e-001,-2.3866498175382839000000000000000000000000e-001,-2.3429649599592245000000000000000000000000e-001,-2.2989923291616321000000000000000000000000e-001,-2.2547307062873109000000000000000000000000e-001,-2.2101788592758465000000000000000000000000e-001,-2.1653355427141541000000000000000000000000e-001,-2.1201994976835339000000000000000000000000e-001,-2.0747694516041984000000000000000000000000e-001,-2.0290441180772384000000000000000000000000e-001,-1.9830221967239953000000000000000000000000e-001,-1.9367023730227984000000000000000000000000e-001,-1.8900833181430324000000000000000000000000e-001,-1.8431636887764932000000000000000000000000e-001,-1.7959421269659903000000000000000000000000e-001,-1.7484172599311568000000000000000000000000e-001,-1.7005876998914171000000000000000000000000e-001,-1.6524520438860729000000000000000000000000e-001,-1.6040088735914543000000000000000000000000e-001,-1.5552567551350938000000000000000000000000e-001,-1.5061942389068689000000000000000000000000e-001,-1.4568198593670659000000000000000000000000e-001,-1.4071321348513083000000000000000000000000e-001,-1.3571295673723005000000000000000000000000e-001,-1.3068106424183282000000000000000000000000e-001,-1.2561738287484600000000000000000000000000e-001,-1.2052175781843949000000000000000000000000e-001,-1.1539403253988895000000000000000000000000e-001,-1.1023404877007122000000000000000000000000e-001,-1.0504164648160561000000000000000000000000e-001,-9.9816663866634986000000000000000000000000e-002,-9.4558937314240019000000000000000000000000e-002,-8.9268301387479890000000000000000000000000e-002,-8.3944588800052733000000000000000000000000e-002,-7.8587630392568816000000000000000000000000e-002,-7.3197255108429130000000000000000000000000e-002,-6.7773289969302389000000000000000000000000e-002,-6.2315560050192773000000000000000000000000e-002,-5.6823888454090740000000000000000000000000e-002,-5.1298096286199378000000000000000000000000e-002,-4.5738002627728008000000000000000000000000e-002,-4.0143424509245129000000000000000000000000e-002,-3.4514176883582236000000000000000000000000e-002,-2.8850072598280110000000000000000000000000e-002,-2.3150922367568837000000000000000000000000e-002,-1.7416534743872662000000000000000000000000e-002,-1.1646716088830673000000000000000000000000e-002,-5.8412705438239893000000000000000000000000e-003,0.0000000000000000000000000000000000000000e+000,
-1.5807184276820720000000000000000000000000e+001,-1.3929313534089824000000000000000000000000e+001,-1.2356173727402329000000000000000000000000e+001,-1.1021893949491954000000000000000000000000e+001,-9.8782646045510720000000000000000000000000e+000,-8.8891876736872764000000000000000000000000e+000,-8.0270960899489463000000000000000000000000e+000,-7.2705726279545644000000000000000000000000e+000,-6.6027242880495498000000000000000000000000e+000,-6.0100465617682541000000000000000000000000e+000,-5.4816135845906606000000000000000000000000e+000,-5.0084900597766628000000000000000000000000e+000,-4.5832971928494830000000000000000000000000e+000,-4.1998875476354263000000000000000000000000e+000,-3.8530982151093975000000000000000000000000e+000,-3.5385611369122705000000000000000000000000e+000,-3.2525557153544238000000000000000000000000e+000,-2.9918931034283824000000000000000000000000e+000,-2.7538245033789526000000000000000000000000e+000,-2.5359678542709161000000000000000000000000e+000,-2.3362487434573400000000000000000000000000e+000,-2.1528524211045794000000000000000000000000e+000,-1.9841845556158972000000000000000000000000e+000,-1.8288389251252319000000000000000000000000e+000,-1.6855706538828761000000000000000000000000e+000,-1.5532739123352521000000000000000000000000e+000,-1.4309632340976823000000000000000000000000e+000,-1.3177577817688086000000000000000000000000e+000,-1.2128680309389097000000000000000000000000e+000,-1.1155844481610195000000000000000000000000e+000,-1.0252678216574789000000000000000000000000e+000,-9.4134096871143613000000000000000000000000e-001,-8.6328159519705694000000000000000000000000e-001,-7.9061612364739120000000000000000000000000e-001,-7.2291433899597157000000000000000000000000e-001,-6.5978472744505179000000000000000000000000e-001,-6.0087040517851231000000000000000000000000e-001,-5.4584555090526754000000000000000000000000e-001,-4.9441227030679574000000000000000000000000e-001,-4.4629783200735978000000000000000000000000e-001,-4.0125222418715201000000000000000000000000e-001,-3.5904598881065586000000000000000000000000e-001,-3.1946829695685675000000000000000000000000e-001,-2.8232523416278987000000000000000000000000e-001,-2.4743826922580700000000000000000000000000e-001,-2.1464288371235313000000000000000000000000e-001,-1.8378734262061797000000000000000000000000e-001,-1.5473158934538495000000000000000000000000e-001,-1.2734625038050157000000000000000000000000e-001,-1.0151173713683445000000000000000000000000e-001,-7.7117433908050828000000000000000000000000e-002,-5.4060962429703832000000000000000000000000e-002,-3.2247514687361353000000000000000000000000e-002,-1.1589246668746377000000000000000000000000e-002,7.9952733505070095000000000000000000000000e-003,2.6581567625811299000000000000000000000000e-002,4.4239707837731894000000000000000000000000e-002,6.1034734452543066000000000000000000000000e-002,7.7027040437214311000000000000000000000000e-002,9.2272722778398153000000000000000000000000e-002,1.0682390487228291000000000000000000000000e-001,1.2072903251737620000000000000000000000000e-001,1.3403314594878279000000000000000000000000e-001,1.4677813009471088000000000000000000000000e-001,1.5900294500898893000000000000000000000000e-001,1.7074383823320702000000000000000000000000e-001,1.8203454066520605000000000000000000000000e-001,1.9290644735401749000000000000000000000000e-001,2.0338878450242329000000000000000000000000e-001,2.1350876383483117000000000000000000000000e-001,2.2329172537822697000000000000000000000000e-001,2.3276126960591206000000000000000000000000e-001,2.4193937980612054000000000000000000000000e-001,2.5084653545919472000000000000000000000000e-001,2.5950181733669009000000000000000000000000e-001,2.6792300497264060000000000000000000000000e-001,2.7612666710042083000000000000000000000000e-001,2.8412824559746974000000000000000000000000e-001,2.9194213343396674000000000000000000000000e-001,2.9958174707982277000000000000000000000000e-001,3.0705959378657782000000000000000000000000e-001,3.1438733412656805000000000000000000000000e-001,3.2157584014065010000000000000000000000000e-001,3.2863524941753197000000000000000000000000e-001,3.3557501540205659000000000000000000000000e-001,3.4240395420636283000000000000000000000000e-001,3.4913028817647856000000000000000000000000e-001,3.5576168644737838000000000000000000000000e-001,3.6230530270168487000000000000000000000000e-001,3.6876781033084721000000000000000000000000e-001,3.7515543518264460000000000000000000000000e-001,3.8147398606512023000000000000000000000000e-001,3.8772888316442111000000000000000000000000e-001,3.9392518452241687000000000000000000000000e-001,4.0006761070928787000000000000000000000000e-001,4.0616056781644178000000000000000000000000e-001,4.1220816888604933000000000000000000000000e-001,4.1821425388513173000000000000000000000000e-001,4.2418240832441217000000000000000000000000e-001,4.3011598061501399000000000000000000000000e-001,4.3601809824949794000000000000000000000000e-001,4.4189168288763275000000000000000000000000e-001,4.4773946442165280000000000000000000000000e-001,4.5356399409052850000000000000000000000000e-001,4.5936765670793445000000000000000000000000e-001,4.6515268206411087000000000000000000000000e-001,4.7092115555764996000000000000000000000000e-001,4.7667502810937518000000000000000000000000e-001,4.8241612540689416000000000000000000000000e-001,4.8814615652507470000000000000000000000000e-001,4.9386672196459858000000000000000000000000e-001,4.9957932114786924000000000000000000000000e-001,5.0528535940887731000000000000000000000000e-001,5.1098615451113794000000000000000000000000e-001,5.1668294272550064000000000000000000000000e-001,5.2237688449747910000000000000000000000000e-001,5.2806906973174184000000000000000000000000e-001,5.3376052271954022000000000000000000000000e-001,5.3945220673311145000000000000000000000000e-001,5.4514502830947287000000000000000000000000e-001,5.5083984124452023000000000000000000000000e-001,5.5653745031693080000000000000000000000000e-001,5.6223861476006842000000000000000000000000e-001,5.6794405149886096000000000000000000000000e-001,5.7365443816748685000000000000000000000000e-001,5.7937041592264249000000000000000000000000e-001,5.8509259206617403000000000000000000000000e-001,5.9082154248993535000000000000000000000000e-001,5.9655781395486895000000000000000000000000e-001,6.0230192621550860000000000000000000000000e-001,6.0805437400034867000000000000000000000000e-001,6.1381562885782992000000000000000000000000e-001,6.1958614087703545000000000000000000000000e-001,6.2536634029158644000000000000000000000000e-001,6.3115663897465557000000000000000000000000e-001,6.3695743183248843000000000000000000000000e-001,6.4276909810332739000000000000000000000000e-001,6.4859200256817240000000000000000000000000e-001,6.5442649667938091000000000000000000000000e-001,6.6027291961270773000000000000000000000000e-001,6.6613159924801124000000000000000000000000e-001,6.7200285308350116000000000000000000000000e-001,6.7788698908807588000000000000000000000000e-001,6.8378430649599420000000000000000000000000e-001,6.8969509654783989000000000000000000000000e-001,6.9561964318147174000000000000000000000000e-001,7.0155822367640497000000000000000000000000e-001,7.0751110925483796000000000000000000000000e-001,7.1347856564232004000000000000000000000000e-001,7.1946085359085898000000000000000000000000e-001,7.2545822936707338000000000000000000000000e-001,7.3147094520782407000000000000000000000000e-001,7.3749924974559089000000000000000000000000e-001,7.4354338840571133000000000000000000000000e-001,7.4960360377745383000000000000000000000000e-001,7.5568013596076278000000000000000000000000e-001,7.6177322289039340000000000000000000000000e-001,7.6788310063903265000000000000000000000000e-001,7.7401000370089890000000000000000000000000e-001,7.8015416525720938000000000000000000000000e-001,7.8631581742481205000000000000000000000000e-001,7.9249519148918812000000000000000000000000e-001,7.9869251812295350000000000000000000000000e-001,8.0490802759090707000000000000000000000000e-001,8.1114194994260425000000000000000000000000e-001,8.1739451519336936000000000000000000000000e-001,8.2366595349459448000000000000000000000000e-001,8.2995649529411808000000000000000000000000e-001,8.3626637148742211000000000000000000000000e-001,8.4259581356033475000000000000000000000000e-001,8.4894505372388018000000000000000000000000e-001,8.5531432504187366000000000000000000000000e-001,8.6170386155181822000000000000000000000000e-001,8.6811389837962261000000000000000000000000e-001,8.7454467184862328000000000000000000000000e-001,8.8099641958336283000000000000000000000000e-001,8.8746938060854419000000000000000000000000e-001,8.9396379544355220000000000000000000000000e-001,9.0047990619290863000000000000000000000000e-001,9.0701795663300078000000000000000000000000e-001,9.1357819229540027000000000000000000000000e-001,9.2016086054706969000000000000000000000000e-001,9.2676621066773235000000000000000000000000e-001,9.3339449392466212000000000000000000000000e-001,9.4004596364513526000000000000000000000000e-001,9.4672087528676718000000000000000000000000e-001,9.5341948650594432000000000000000000000000e-001,9.6014205722454582000000000000000000000000e-001,9.6688884969513944000000000000000000000000e-001,9.7366012856481965000000000000000000000000e-001,9.8045616093785104000000000000000000000000e-001,9.8727721643726207000000000000000000000000e-001,9.9412356726553375000000000000000000000000e-001,1.0009954882645096000000000000000000000000e+000,1.0078932569746522000000000000000000000000e+000,1.0148171536937609000000000000000000000000e+000,1.0217674615352583000000000000000000000000e+000,1.0287444664861465000000000000000000000000e+000,1.0357484574647284000000000000000000000000e+000,1.0427797263781868000000000000000000000000e+000,1.0498385681801004000000000000000000000000e+000,1.0569252809279805000000000000000000000000e+000,1.0640401658409049000000000000000000000000e+000,1.0711835273573140000000000000000000000000e+000,1.0783556731930457000000000000000000000000e+000,1.0855569143996651000000000000000000000000e+000,1.0927875654231547000000000000000000000000e+000,1.1000479441630224000000000000000000000000e+000,1.1073383720318819000000000000000000000000e+000,1.1146591740155585000000000000000000000000e+000,1.1220106787337731000000000000000000000000e+000,1.1293932185014508000000000000000000000000e+000,1.1368071293907016000000000000000000000000e+000,1.1442527512935206000000000000000000000000e+000,1.1517304279852481000000000000000000000000e+000,1.1592405071888365000000000000000000000000e+000,1.1667833406399606000000000000000000000000e+000,1.1743592841530142000000000000000000000000e+000,1.1819686976880335000000000000000000000000e+000,1.1896119454185827000000000000000000000000e+000,1.1972893958006419000000000000000000000000e+000,1.2050014216425318000000000000000000000000e+000,1.2127484001759175000000000000000000000000e+000,1.2205307131279202000000000000000000000000e+000,1.2283487467943777000000000000000000000000e+000,1.2362028921142887000000000000000000000000e+000,1.2440935447454731000000000000000000000000e+000,1.2520211051414898000000000000000000000000e+000,1.2599859786298391000000000000000000000000e+000,1.2679885754914935000000000000000000000000e+000,1.2760293110417844000000000000000000000000e+000,1.2841086057126869000000000000000000000000e+000,1.2922268851365335000000000000000000000000e+000,1.3003845802311949000000000000000000000000e+000,1.3085821272867635000000000000000000000000e+000,1.3168199680537769000000000000000000000000e+000,1.3250985498330159000000000000000000000000e+000,1.3334183255669179000000000000000000000000e+000,1.3417797539326404000000000000000000000000e+000,1.3501832994368139000000000000000000000000e+000,1.3586294325120241000000000000000000000000e+000,1.3671186296150599000000000000000000000000e+000,1.3756513733269717000000000000000000000000e+000,1.3842281524549758000000000000000000000000e+000,1.3928494621362488000000000000000000000000e+000,1.4015158039436548000000000000000000000000e+000,1.4102276859934453000000000000000000000000e+000,1.4189856230549787000000000000000000000000e+000,1.4277901366625005000000000000000000000000e+000,1.4366417552290329000000000000000000000000e+000,1.4455410141624152000000000000000000000000e+000,1.4544884559835480000000000000000000000000e+000,1.4634846304468834000000000000000000000000e+000,1.4725300946632121000000000000000000000000e+000,1.4816254132248006000000000000000000000000e+000,1.4907711583329222000000000000000000000000e+000,1.4999679099278407000000000000000000000000e+000,
21,2,1025,
1.0000000000000000000000000000000000000000e+00,9.6606254711436241157858677911751881458920e-01,9.3327684493708969423442242981680114128550e-01,9.0160380598278071543701771146683008126410e-01,8.7100566929572856163819061677801343757920e-01,8.4144595543088153931611747372850195780150e-01,8.1288942296263569100313274541804849275000e-01,7.8530202646960811624032425718901598654000e-01,7.5865087594530006843161528705619607418230e-01,7.3290419758625876050763234471491409729060e-01,7.0803129591098908186909992566711587502740e-01,6.8400251716445296419314689294706910464760e-01,6.6078921396452682583888182346148425046040e-01,6.3836371114826820107383764357122527540360e-01,6.1669927277727308643967206080209220084370e-01,5.9577007026278741765403041329897399992320e-01,5.7555115157257107400000184291404548375240e-01,5.5601841148280248476763921319978219218100e-01,5.3714856283955782155182251885929897746230e-01,5.1891910879560238646442904896781192411770e-01,5.0130831598939458456318078124830417956890e-01,4.8429518863432618531206068540703794461370e-01,4.6785944348730777189949146728142909038860e-01,4.5198148566685664253114180657349085109840e-01,4.3664238529185721425723755946252138048910e-01,4.2182385491314239494507486947926061928290e-01,4.0750822771098959914356181757153911898540e-01,3.9367843643253821569828300147679696108220e-01,3.8031799304401747770923110636361828409330e-01,3.6741096907352589047953755726480594062140e-01,3.5494197662092665649077908903185444414100e-01,3.4289615001221887968651566808162005614660e-01,3.3125912807651268266785209624629281654560e-01,3.2001703702447864584015788481928668668390e-01,3.0915647390785906204780715066764271134610e-01,2.9866449064032124871017081334444609449880e-01,2.8852857856060239782968547721125660490740e-01,2.7873665351954197035518544411034065166460e-01,2.6927704147322222604656874175949023334290e-01,2.6013846456504086783718276016901712797260e-01,2.5131002768012269009388797398866842060680e-01,2.4278120545604024808397331150245281154980e-01,2.3454182973435758274042423932557180062530e-01,2.2658207743803658905545290422025364121990e-01,2.1889245886025333469840311792189441070760e-01,2.1146380635066212305560795834154745732600e-01,2.0428726338561893659137704058682625254670e-01,1.9735427400933365715046651540659695010540e-01,1.9065657263336268531065305070212768651920e-01,1.8418617418228079837562831973566701530970e-01,1.7793536457378380540687222750481747322890e-01,1.7189669152187226987648830764372984103290e-01,1.6606295565215175143037339440260386785900e-01,1.6042720191865712709958539624970828191670e-01,1.5498271131196803271975070296212596795660e-01,1.4972299284872974589044628589998291931320e-01,1.4464177583302932656053155761890560690330e-01,1.3973300238040094024203645214522595001550e-01,1.3499082019554739834075558939364905540690e-01,1.3040957559516743343882811392804768493800e-01,1.2598380676757044519737061992654128046460e-01,1.2170823726104275325108581605199973426570e-01,1.1757776969320211360378815616962963607910e-01,1.1358747967384071974400520167083408848290e-01,1.0973260993401143308884098506236370753390e-01,1.0600856465435787287779173465886761161320e-01,1.0241090398592653642367860453058028576590e-01,9.8935338756928599884120887301980047703120e-02,9.5577725359140741031784505526663734866170e-02,9.2334060807848493177900331333594113039680e-02,8.9200477969442538774383946125582187764690e-02,8.6173240950978228953075663342383580857080e-02,8.3248740646201709652653919510522586570890e-02,8.0423490432732576243977276725145716669900e-02,7.7694122015273189089583080114502646606780e-02,7.5057381409888877111842853813143193115820e-02,7.2510125064571442754445590743760207687620e-02,7.0049316111460860217073723303190828347830e-02,6.7672020746257023232054630671249205020900e-02,6.5375404730505036069134977235523826115420e-02,6.3156730012584032684182109995688317956360e-02,6.1013351463371028618069034889206396280610e-02,5.8942713722688027124624669380578777797720e-02,5.6942348152772678056732857383165658505660e-02,5.5009869895140382731196924114044810145790e-02,5.3142975027329002445687471471137081002580e-02,5.1339437816136409492236026033687553998870e-02,4.9597108064076159371246766318330028507440e-02,4.7913908545887698609696092543664426230870e-02,4.6287832532044886624314941260327688630910e-02,4.4716941396310330445722340054329952545220e-02,4.3199362304483231489306555920238834634180e-02,4.1733285981585243383147892883379348926910e-02,4.0316964554822354548291667684529641666380e-02,3.8948709469751150261477571650092410791390e-02,3.7626889477165084020617220192750310216400e-02,3.6349928688300701229236021364782981189100e-02,3.5116304696045210036905505383649823763430e-02,3.3924546759905481726171078420338474420460e-02,3.2773234052574580134820111723481692326980e-02,3.1660993966005356873981810077544315341830e-02,3.0586500474971594100250282538400868866620e-02,2.9548472556165713905205302632122170262450e-02,2.8545672660948284709322750637665115652960e-02,2.7576905239928519327208471215005044684730e-02,2.6641015317616752866294133724667438688070e-02,2.5736887115449585002506383061302792334370e-02,2.4863442721546041614662990224861235049490e-02,2.4019640805608824009811387005330741743080e-02,2.3204475377438536456373995482303625355140e-02,2.2416974587580778628576825082667810375210e-02,2.1656199568676220844297728171951776853100e-02,2.0921243316132306535477717079258449195320e-02,2.0211229606782106079503629706359635241250e-02,1.9525311954241134831989594782670928542540e-02,1.8862672599716699929873510154965202061260e-02,1.8222521537066607340009257248496319397470e-02,1.7604095570944893103559911124214100534070e-02,1.7006657406911689451420998925665840737980e-02,1.6429494772422444469458058934645865649050e-02,1.5871919567648528707322731589900422311090e-02,1.5333267045116827441936461740184325806880e-02,1.4812895017190275627774664543497762214740e-02,1.4310183090444484853226327903416520354700e-02,1.3824531926027677447765092544437898046660e-02,1.3355362525122120477688094958661576549120e-02,1.2902115538655178660595467595540624228850e-02,1.2464250600437015899061069319735730837150e-02,1.2041245682929904649712256893131620652930e-02,1.1632596474881084003078276665441286787750e-02,1.1237815780077173319922723987423648493940e-02,1.0856432936503329627490515482860238786790e-02,1.0487993255214663745673767819155835891020e-02,1.0132057478250931291180461839469170051890e-02,9.7882012549482183157454266337000071741260e-03,9.4560146360232744397535047875441083150210e-03,9.1351015848273350942463030229693691483810e-03,8.8250795051867441436262925749273229784880e-03,8.5255787852674631326148673823111273825260e-03,8.2362423569196572601089430569866042966110e-03,7.9567252699770037053509224733815692180360e-03,7.6866942810031971211626017703752363706740e-03,7.4258274559953512210562674483272246250280e-03,7.1738137865706349566072880961303988615540e-03,6.9303528191785566464352022401934833448850e-03,6.6951542968968387431306872159343997935340e-03,6.4679378133838282237209704797124986562670e-03,6.2484324785748807486972725075329387345730e-03,6.0363765957241580331435436176510377941470e-03,5.8315173494068040036127168385865177205200e-03,5.6336105041095324021004287766426686487030e-03,5.4424201130502821224965924441546100859860e-03,5.2577182368797917752798592280953209226520e-03,5.0792846719297263122268007902210000242390e-03,4.9069066876833700503787748776147869965770e-03,4.7403787731558956826070030953935948611620e-03,4.5795023918818409594996757891981443022240e-03,4.4240857452176863377486943208133053521050e-03,4.2739435436773402477461497174206804032690e-03,4.1288967860279155565289280564817234011880e-03,3.9887725458824327092504873321749760892890e-03,3.8534037655350229532402104263934499845190e-03,3.7226290567928396393232919771725501436590e-03,3.5962925085672271496745698154764765855030e-03,3.4742435009947554649639186763012087953890e-03,3.3563365258665133633102050179064144656960e-03,3.2424310131515740209363832715665925477190e-03,3.1323911634078123257660481669310619302780e-03,3.0260857858802721825823147153785647627970e-03,2.9233881420940628498756708929115307725870e-03,2.8241757947553139882390905915336003653560e-03,2.7283304617800474278730735315232593318420e-03,2.6357378752769372231443457089063063564810e-03,2.5462876453158356438556248764342590497150e-03,2.4598731283196483972276300476870789799660e-03,2.3763912999226543839021894538351594132760e-03,2.2957426321436902370267923914077293929020e-03,2.2178309747277641241368616060732164160490e-03,2.1425634405146329401224355462218250278200e-03,2.0698502946976780109221459521042792914190e-03,1.9996048478410524855256171187065307236040e-03,1.9317433525275542479308941359463139453310e-03,1.8661849035140067727827442744020272717520e-03,1.8028513412751120391071623042688673831780e-03,1.7416671588207793913161403932104420771610e-03,1.6825594116758369117499501042363572417810e-03,1.6254576309148020972652679093275931523080e-03,1.5702937391480309086752596441749063623460e-03,1.5170019693590829285652708197085395825270e-03,1.4655187864965396151393547103934073151200e-03,1.4157828117267965299253930743323456930800e-03,1.3677347492575228604710756898876180173860e-03,1.3213173156445463378223370135268090049940e-03,1.2764751714978824164538243922398654614580e-03,1.2331548555054868712785842684684524048910e-03,1.1913047206960741824679014589993256498300e-03,1.1508748728650135183996414281283388892060e-03,1.1118171110898929726606313673202591299390e-03,1.0740848702648340371845085808415977108600e-03,1.0376331655850450704983189994162546210680e-03,1.0024185389154276170656294191806942730010e-03,9.6839900697929562285801436051535433820190e-04,9.3553401130543755149262570598180810030440e-04,9.0378436987384772159108834414649387405660e-04,8.7311223040247835869624037398174915133820e-04,8.4348102521932029856205569065550232908930e-04,8.1485542766601032540252019789648216827680e-04,7.8720130998098903208244308067460268019730e-04,7.6048570261199702611987821409966147029750e-04,7.3467675490940137873153902287488268047650e-04,7.0974369715349045560487170067283449313670e-04,6.8565680387046564029100810360064398435380e-04,6.6238735839339486014140965143040336798090e-04,6.3990761862587708226995727663433468435060e-04,6.1819078396760083266020936413743459427910e-04,5.9721096336236501474923463341114809188540e-04,5.7694314443046851608362927167558174835410e-04,5.5736316364866788839186263422540470213510e-04,5.3844767754215130893688672286874527299580e-04,5.2017413485418356828356233316577535176290e-04,5.0252074966024242008429608757728724256440e-04,4.8546647539459266178350364731415086111990e-04,4.6899097975833213373676337195599117266900e-04,4.5307462047899472504344928958707629536150e-04,4.3769842189281071029807010176666232937360e-04,4.2284405232170552285123626672245089351880e-04,4.0849380221806556633480437798841879955440e-04,3.9463056305121500676296280996564979615090e-04,3.8123780691043176375120256716219152179210e-04,3.6829956680018518554239761735439585139970e-04,3.5580041760410316705937421060047404993630e-04,3.4372545769497373701801904819200395749580e-04,3.3206029116885634974468637001360103416440e-04,3.2079101068212218799903262778890865689660e-04,3.0990418087096160189789797848126023066170e-04,2.9938682233359123295137306448900312262680e-04,2.8922639615606422915879318572153997441370e-04,2.7941078896323504687332661794591036653880e-04,2.6992829847705643038902143668319387123850e-04,2.6076761956499100737148699539394372360930e-04,2.5191783076190425844845434094133657935460e-04,2.4336838124937010913243773219895283785680e-04,2.3510907827686572475580564080035289769770e-04,2.2713007500985891441035564372054666628390e-04,2.1942185879030049608607594832282415550090e-04,2.1197523979552564906859295580313818867520e-04,2.0478134008204326736099861933965188614050e-04,1.9783158300115119572904547579530440145300e-04,1.9111768297375852499651819847461487900170e-04,1.8463163561222437394129037556164540622710e-04,1.7836570817743630212751627188995694083510e-04,1.7231243035975117449366395969664471886230e-04,1.6646458537280741099849887542765202245930e-04,1.6081520134959056343534943384307690379780e-04,1.5535754303049451136435392341472636402790e-04,1.5008510373346868959605961499989739658320e-04,1.4499159759667806582090358980772292645910e-04,1.4007095208442747976576389795862793964200e-04,1.3531730074741582201178863733163034632280e-04,1.3072497622868874552258657115983914896710e-04,1.2628850350695152750485110376195252244310e-04,1.2200259336918668268258280214705611595980e-04,1.1786213610479430878735862363936559124570e-04,1.1386219541373724697696805246726131992890e-04,1.0999800252142827885848510170152148414340e-04,1.0626495049334306198903237665170257815860e-04,1.0265858874258062101460135094308132705280e-04,9.9174617723823245868063385315915121245910e-05,9.5808883807369875931389420805954895161220e-05,9.2557374327131734716215492853434092455420e-05,8.9416212796686379381908221897943429680280e-05,8.6381654287686690555547687976591650823020e-05,8.3450080965114889316580864800582563931340e-05,8.0617997774058660626398058488086580490490e-05,7.7882028272867108854225212894773702230990e-05,7.5238910607718786744155820951198851885600e-05,7.2685493623802632243453444106800426332050e-05,7.0218733108475519068013019693390649032710e-05,6.7835688161917470894270139308540123733790e-05,6.5533517690957593225206850928379623328430e-05,6.3309477021890622502499164967363570848350e-05,6.1160914628245853998182394719448628933450e-05,5.9085268969607257546912478567627161616520e-05,5.7080065437715986663588967988680356906670e-05,5.5142913406214389875365532159696621593050e-05,5.3271503380514195669650499030760917499870e-05,5.1463604244390911633291372904813808274670e-05,4.9717060600021796446023932425385763386960e-05,4.8029790198296167876978661263182796530650e-05,4.6399781456334433634264307460892927876680e-05,4.4825091059256203144585640333166660863960e-05,4.3303841643338281048174101122288277739590e-05,4.1834219557800377132950299848469310581030e-05,4.0414472702550108285756655487338814720500e-05,3.9042908439309427566604474104634676062330e-05,3.7717891573632101680267314212468274216840e-05,3.6437842405406375230222245653910685627700e-05,3.5201234845518608955148980267473271001140e-05,3.4006594596432557010585922275205909802660e-05,3.2852497394515149306992707172458461651530e-05,3.1737567312013259798014650791685266721240e-05,3.0660475116657058193682301479556365695510e-05,2.9619936686934245638602096348927633819140e-05,2.8614711481145846353474438910659255669840e-05,2.7643601058418346218317492437007590985620e-05,2.6705447649908912220952710722185996329670e-05,2.5799132778500267453702288466790190070760e-05,2.4923575925339606257690293974921995387620e-05,2.4077733241631782109265268532261423916340e-05,2.3260596304150953499484751834335465672040e-05,2.2471190912986994698289468310149263664120e-05,2.1708575930093331059957038119625097400260e-05,2.0971842157251502446798641702751942566920e-05,2.0260111252114751417679781285843001017410e-05,1.9572534681038331072477894603817918188460e-05,1.8908292707448084987336305719378742662310e-05,1.8266593414541220805996143015921094337630e-05,1.7646671761154130282542492650178494089200e-05,1.7047788669671650699264163482276968148530e-05,1.6469230144890362752571226430136957703270e-05,1.5910306422785423752715309785990252714320e-05,1.5370351148166086316486469626489116362660e-05,1.4848720580239494150040740709379980641390e-05,1.4344792825135619082992738994901679810220e-05,1.3857967094478346892815488044257146957480e-05,1.3387662989118771972124111417264140039440e-05,1.2933319807176759561739446366295801435070e-05,1.2494395875565814864286450439294650765670e-05,1.2070367904204295417470282449341576759150e-05,1.1660730362143050021507344866891919229240e-05,1.1264994874865696527108117070598201693320e-05,1.0882689642042993050217183539965604969310e-05,1.0513358875047142781521455195027568061410e-05,1.0156562253555430575330810940750022493690e-05,9.8118744005953480199504035536828166822030e-06,9.4788843754053498430629782781936573874410e-06,9.1571951835066245030614131346904913780990e-06,8.8464233034017809832817551181606749632670e-06,8.5461982293361766038673724781513919884010e-06,8.2561620295767607285094572699372833711960e-06,7.9759689196818094014793796381824463828320e-06,7.7052848502527982602923822771420477744920e-06,7.4437871086769268385900876728509821999470e-06,7.1911639343854871868468871413358224630520e-06,6.9471141471693834811544511628270437157300e-06,6.7113467881086761736058034855025543191210e-06,6.4835807726880628207001475248023655119460e-06,6.2635445556847359378907527501012180065830e-06,6.0509758074290933895992086158640962915220e-06,5.8456211010523356675983521981465961093910e-06,5.6472356103480831016300283061876651485560e-06,5.4555828178878002008802441730019594904000e-06,5.2704342330420390299098311580911229133140e-06,5.0915691195713233522651276659004324274140e-06,4.9187742324619043090830658371050945127310e-06,4.7518435636926402405380173828989544122960e-06,4.5905780966299010453169259700157760963650e-06,4.4347855687576839018672661623252110987070e-06,4.2842802424600645085358324934121276256730e-06,4.1388826835827080853066550192183345292390e-06,3.9984195475094386629842118251389496056110e-06,3.8627233724988247232589434210164531210570e-06,3.7316323800343947267980423731669590760820e-06,3.6049902819504577954793607601840834668310e-06,3.4826460941035827680780201814346041956140e-06,3.3644539563675926567511940545985757590620e-06,3.2502729587374704983348705385981628091210e-06,3.1399669733348557078086298848347586757190e-06,3.0334044921148459843107829509475716380030e-06,2.9304584700806169811275690171436277686930e-06,2.8310061738189384337888654963224130069930e-06,2.7349290351760090734140638723145794195170e-06,2.6421125098991609987165265091898280371990e-06,2.5524459410759045458771721071520055609160e-06,2.4658224272075041391643950799268394395230e-06,2.3821386947598009454942123807531728793430e-06,2.3012949750393359804645448348625330932910e-06,2.2231948852479839855755025483499389537440e-06,2.1477453135742900642064201944355437817650e-06,2.0748563081845136666610117020377621548000e-06,2.0044409699810337898538703875337144915250e-06,1.9364153490002607479132454706660737898200e-06,1.8706983443265389309226554262804342678400e-06,1.8072116074027167732950500477946705274000e-06,1.7458794486221096983844265066491596863840e-06,1.6866287470904939198045787100091552833320e-06,1.6293888634505483266094642591967067884260e-06,1.5740915556648127647744242512280297425970e-06,1.5206708976567582041674094260092743951070e-06,1.4690632007129717535545147546512679687010e-06,1.4192069375527513185728237364618987787520e-06,1.3710426689745848135856639502791697208570e-06,1.3245129729920610292811622926156669009860e-06,1.2795623763747271864852968970392442711840e-06,1.2361372885122754113335710085052348604970e-06,1.1941859375232102659948613822361018419530e-06,1.1536583085318253648719331614293020216090e-06,1.1145060840399021888487569386343254207660e-06,1.0766825863220415616799154420461712710500e-06,1.0401427217759508503928153121396361239200e-06,1.0048429271613406719255118756202785233460e-06,9.7074111766333650986290853133278512575250e-07,9.3779663671848585247072385943697928445710e-07,9.0597020754354284956674763719138850111910e-07,8.7522388630924255640912239786499015615200e-07,8.4552101690323800799489579440035405496310e-07,8.1682618722826798508418872535143037041540e-07,7.8910518698345365268095633350293137503060e-07,7.6232496687839045473801745655050659575050e-07,7.3645359923140984358347638259068194565390e-07,7.1146023990503564551695889131459209257690e-07,6.8731509153325408261172221190803590988290e-07,6.6398936799675658562812881831956340646770e-07,6.4145526010380238023758451187597241528590e-07,6.1968590243578518230222383980779763170510e-07,5.9865534131797691138355492077957601793600e-07,5.7833850387726278043591618156822339559150e-07,5.5871116814997804306837858648671493418400e-07,5.3974993420420862284623430432216269982630e-07,5.2143219624212730443117233993513006602430e-07,5.0373611564910557585399132835992704977320e-07,4.8664059495746996786627016137015987199630e-07,4.7012525269386218584427162820429658852830e-07,4.5417039908021577216576697308440359193140e-07,4.3875701255937972827445519312989727930790e-07,4.2386671711740267909029505049193082418730e-07,4.0948176037544095014403889705963424552670e-07,3.9558499242517148215823065742922320887520e-07,3.8215984538247692268358495897946868158690e-07,3.6919031363502656662286607131437428609840e-07,3.5666093476020408796310763066829788803960e-07,3.4455677109063220007250174631242460520150e-07,3.3286339190531645430991041083192270630360e-07,3.2156685622517625691616140891656829936780e-07,3.1065369619245174144200910230038799725240e-07,3.0011090101417123737442318774094498454560e-07,2.8992590145053655505308002383234654352690e-07,2.8008655482973296416016325819478423612490e-07,2.7058113057129835254749336607617750549600e-07,2.6139829620079236217872953058313761774610e-07,2.5252710383909203236058627154699110842240e-07,2.4395697715020633553366915954944700860890e-07,2.3567769873204864230951281901486040982600e-07,2.2767939793513425189970864177185504699220e-07,2.1995253909468030119179478241663124327380e-07,2.1248791016207822872377342991150956572170e-07,2.0527661172218510629156648096346741753010e-07,1.9831004638334012854672672305538733355980e-07,1.9157990852745691809581840423696241130490e-07,1.8507817440797159007762175205246138166850e-07,1.7879709258384123776988511032463154505910e-07,1.7272917467818814389473574646342343063400e-07,1.6686718645057206860232747660513754479880e-07,1.6120413917224687605684431364168078870480e-07,1.5573328129411898290845661455694106028470e-07,1.5044809039747407436143492898913568307210e-07,1.4534226541787565307932358505338488194310e-07,1.4040971913296466472058303051163780112920e-07,1.3564457090520406975008536107902762487770e-07,1.3104113967091617942379486216919284948320e-07,1.2659393716725420686643264828987702054650e-07,1.2229766138903315202752609228014504051710e-07,1.1814719026761918020202132061423094292410e-07,1.1413757556434139445225575808739645721670e-07,1.1026403697114565829534912687599174557570e-07,1.0652195641145720133920732429990513509060e-07,1.0290687253445743172852978753846202986810e-07,9.9414475396210969869792887155805728322660e-08,9.6040601321301682853883142479367976849350e-08,9.2781227938851703869770245423255690405990e-08,8.9632469387005322272029632538173309400940e-08,8.6590571680160475691514555850120433462300e-08,8.3651908233424605112587770649033827234350e-08,8.0812975538959078506260839963199865105830e-08,7.8070388989057471880008006097095165314800e-08,7.5420878840977934371448372491044375758410e-08,7.2861286318718864837310904085329475212200e-08,7.0388559847090392755807893166206383651460e-08,6.7999751413591880816563060849744724617810e-08,6.5692013053758038358572132926053902205690e-08,6.3462593455783435492685665913655230871010e-08,6.1308834680377412805108947181557966450070e-08,5.9228168991938760520894820421468659875380e-08,5.7218115797272257696140888477548280875870e-08,5.5276278688197374630933106534780529857910e-08,5.3400342584523303108544714748277031783290e-08,5.1588070973984136938982512856741150050060e-08,4.9837303245843622274142349781655517011690e-08,4.8145952114990571083631897634858310354250e-08,4.6512001133453915173655463185660441499960e-08,4.4933502286370600816751295326974018814030e-08,4.3408573669540209693092321184472053376110e-08,4.1935397245797460463058218426480212540310e-08,4.0512216677527712860609245376546454262630e-08,3.9137335232741374746841135144056079339740e-08,3.7809113762210810320190721576891345994040e-08,3.6525968745258069198352896192590094899610e-08,3.5286370401863602373014847195091617070850e-08,3.4088840868845199670082355085749586274760e-08,3.2931952437932768591683143997813081607500e-08,3.1814325853638367339236332556387831772840e-08,3.0734628668892193396033329490439666747250e-08,2.9691573656484098274135419622532848534520e-08,2.8683917274416731010628326831056529633270e-08,2.7710458183340687052564466674619375121390e-08,2.6770035814304131926524777215123206311830e-08,2.5861528985109354575331500655197262436630e-08,2.4983854563626654976417480448991542105410e-08,2.4135966176471953722033121120060412836840e-08,2.3316852961508594384493981956321014640140e-08,2.2525538362686057188575589339175174070510e-08,2.1761078965778777058245741686191274884200e-08,2.1022563373637020672512568515700688802220e-08,2.0309111119608883889351945510954638167610e-08,1.9619871617837978938630571117286208368050e-08,1.8954023149185344399864026362403403148690e-08,1.8310771881566582582462023572209011648540e-08,1.7689350923536259149940431326677121853210e-08,1.7089019409991237592119015742183578302810e-08,1.6509061618902913707164519534341176630630e-08,1.5948786118025308261301793006901338882430e-08,1.5407524940561713551581813235215648858190e-08,1.4884632788807114312985401805010199703510e-08,1.4379486264816956446112519540326245040410e-08,1.3891483127185058159625161082003290160730e-08,1.3420041573044585736858747005996020371980e-08,1.2964599544436087359287902930008789902560e-08,1.2524614058215629102080534044645132929260e-08,1.2099560558704141993351853484459049301200e-08,1.1688932292306201358081707088826594241030e-08,1.1292239703352651873610228567669731666480e-08,1.0909009850446795072823094106647251400230e-08,1.0538785842618300610470182519716944500740e-08,1.0181126294612617600634576923009601565550e-08,9.8356048006664758932441284936003374027480e-09,9.5018094261421064832796663235090146518160e-09,9.1793422164141016135161263665351313822590e-09,8.8678187224234039240444451137101753199790e-09,8.5668675423327847418102540649672921690490e-09,8.2761298787373679810914495288550269591620e-09,7.9952591109023010273594559112586645488230e-09,7.7239203815175895117700473825452125178010e-09,7.4617901974774204107124080170674935219210e-09,7.2085560442080180586395920206182633806740e-09,6.9639160130842303767663863518900718421690e-09,6.7275784414906471526007546669503214578390e-09,6.4992615650981271595727634883760804122400e-09,6.2786931819411742547713813940028590226430e-09,6.0656103278956716985840908035653506756570e-09,5.8597589631700755762040945492379459193130e-09,5.6608936694362985716275892625850905356560e-09,5.4687773572392001040857011495329069144400e-09,5.2831809833358531077559430442727728755190e-09,5.1038832776275961277569894261927751955870e-09,4.9306704793593160327133682243085401302210e-09,4.7633360822714551414598896789696191529640e-09,4.6016805884009101008828475532272932205250e-09,4.4455112702373011585808089038176092753230e-09,4.2946419409510518412287514895222662165650e-09,4.1488927324193423533001922283225442734890e-09,4.0080898807852967241545058827988694156720e-09,3.8720655192947449380777952820171071763870e-09,3.7406574781635776891716321489435504234000e-09,3.6137090912370933551257828199676183941880e-09,3.4910690092108342739469265163782205936980e-09,3.3725910191902320895646821497266556692000e-09,3.2581338703739391321888677315937972421550e-09,3.1475611056530235271271855672417931191540e-09,3.0407408989252586855008552133067331821440e-09,2.9375458979305514305355605224067725867810e-09,2.8378530724201353771078001539048801812090e-09,2.7415435674785151575612354558539120405430e-09,2.6485025618232902547163184700724271579000e-09,2.5586191309139218874337019706831532868450e-09,2.4717861147062396704556733530153608937720e-09,2.3878999898950234738171193336695352444010e-09,2.3068607464923466411934319927772929202860e-09,2.2285717685945358703430657067293139341040e-09,2.1529397191955967750189111778800178115070e-09,2.0798744289097783899302891837375024247780e-09,2.0092887884706104000523725190108779524910e-09,1.9410986448782492291265998585661506488260e-09,1.8752227010713186773310330342720474012630e-09,1.8115824190036327404125162783528903783220e-09,1.7501019260102475816661305951278121610110e-09,1.6907079243512112036118339809349374962320e-09,1.6333296038251678534000153054905872416070e-09,1.5778985573486341115542853231026744625070e-09,1.5243486994002993210239778111507845192560e-09,1.4726161872331187279808951357343701703530e-09,1.4226393447602674996082668504862399339210e-09,1.3743585890242115913462484954907695804000e-09,1.3277163591612310572174326600163033460480e-09,1.2826570477767065035169951769894334541920e-09,1.2391269346493535252711075693854731407730e-09,1.1970741226853665630253170104696950939900e-09,1.1564484760461159850134933480388134453590e-09,1.1172015603756335345265645793637902488780e-09,1.0792865850566246737672629819272535152730e-09,1.0426583474261647882141392760011644365980e-09,1.0072731788845725728080671513892275870230e-09,9.7308889283321098854897324531602290410640e-10,9.4006473437914664625075192204984273162830e-10,9.0816133174670494282709222463284080259180e-10,8.7734064933799325592600425040315513031000e-10,8.4756594238643042112291466977175466820540e-10,8.1880171314921991601147526834078986785120e-10,7.9101366858653892164559491443081921285950e-10,7.6416867947698791129075845559065934482780e-10,7.3823474092055774250757262003221939883010e-10,7.1318093418202544267020397341392042092590e-10,6.8897738982928795228970553121458230560840e-10,6.6559525212268693020940486247766088636720e-10,6.4300664461286917044971686074829002597810e-10,6.2118463690616801032141362711006285945980e-10,6.0010321255788304117318530782723447025280e-10,5.7973723805518012626805003103675158327750e-10,5.6006243285263278795219366727526899656640e-10,5.4105534042468099724040453895862262381180e-10,5.2269330030049577938500492783024173803960e-10,5.0495442104790928433376310728648109033060e-10,4.8781755417420145757673038810860349189270e-10,4.7126226891262753370341818513062239586160e-10,4.5526882786462656523069706428723068021100e-10,4.3981816346867135188178404729222106870420e-10,4.2489185526770566673519189147149821182300e-10,4.1047210794806676048104733223315995955820e-10,3.9654173012371089850704644195322894530490e-10,3.8308411384044824425186849082285475145440e-10,3.7008321477575180555987771651548713226100e-10,3.5752353311053443204553528260531737644360e-10,3.4539009505008897939572567047985378789990e-10,3.3366843497216069621695074502091508770370e-10,3.2234457818086856317170986033317675466020e-10,3.1140502424591461412993885911405183543690e-10,3.0083673090721805602134200426092809654210e-10,2.9062709852578510992233417131569514722230e-10,2.8076395506227672432374144841683695498020e-10,2.7123554156536543890427444904742727575320e-10,2.6203049815258045353287546655827384268780e-10,2.5313785046692710723825234904202174800760e-10,2.4454699659313419552314567258530788289990e-10,2.3624769441793052791457737680948288952320e-10,2.2823004941928150432972678763940558816010e-10,2.2048450287002789982905645940329547623540e-10,2.1300182044186310233384137563549497303890e-10,2.0577308119606233592231302985176906961800e-10,1.9878966694783849241541735575655096640520e-10,1.9204325199164463583653716643281619558170e-10,1.8552579317517356904029128902845304816950e-10,1.7922952031022057239168711347234566027810e-10,1.7314692690897703646526125732583765089840e-10,1.6727076123471069313087408085997462697300e-10,1.6159401765616296465553512104870551883340e-10,1.5610992829535604543802876397479712282310e-10,1.5081195495885213739892697590345700611400e-10,1.4569378134284519491597688838249537337120e-10,1.4074930550279200141361117305334381945900e-10,1.3597263257860478650217135766624293828160e-10,1.3135806776673227592505724027799450884900e-10,1.2690010953075040975737450821450639857680e-10,1.2259344304236831822702629014039068391220e-10,1.1843293384502984820855490303686326261030e-10,1.1441362173255631437622477994910286271920e-10,1.1053071483553252358600377295588489982040e-10,1.0677958390838579493892895622629394900380e-10,1.0315575681034696644044247468993513769070e-10,9.9654913173713527470222886456990854293150e-11,9.6272879253058319992438544063759730367010e-11,9.3005622949242976792430044006487527093310e-11,8.9849249002303669212801039582325337278610e-11,8.6799994347478068341592436743070373579890e-11,8.3854223628836922407304147996849272863380e-11,8.1008424865171551143685521063659803972160e-11,7.8259205262970079115573369306211442595750e-11,7.5603287171490590857279205023691529419240e-11,7.3037504175108800234318158882486025835490e-11,7.0558797318281486669626140002501585276980e-11,6.8164211458625056894408968574753295756600e-11,6.5850891743761331187193737814831243533080e-11,6.3616080207730209751227911306523416538350e-11,6.1457112482911423868848302725684356358120e-11,5.9371414623535287710338404572984142485930e-11,5.7356500036995404345006985552493021640100e-11,5.5409966519304802212770411251283652226590e-11,5.3529493391161139291636668511727731481960e-11,5.1712838731206559466293506743172872978980e-11,4.9957836703183662167989793474523277495990e-11,4.8262394973800990365421080391765832582540e-11,4.6624492218229586901303296236059611647930e-11,4.5042175710256643921334688309621217574070e-11,4.3513558994223199287288051067805024331050e-11,4.2036819635970337732912549275275656707310e-11,4.0610197050112549355371361160410688495450e-11,3.9231990401047896136245747228757257216490e-11,3.7900556575202547043664830742728976797030e-11,3.6614308222092168688000993518994015509780e-11,3.5371711861864702738044026549655141171070e-11,3.4171286057068321166698437162907851543360e-11,3.3011599646464920379542774806354263502430e-11,3.1891270038783486673649850644818331735370e-11,3.0808961564379126467425942646133597340330e-11,2.9763383882832590531491005040072662510550e-11,2.8753290444591814341040260912288615330430e-11,2.7777477004821426173719536492970419699440e-11,2.6834780187688417507396077665587800495790e-11,2.5924076099372300836039775014354049998190e-11,2.5044278988146169907585833955878832884840e-11,2.4194339949931195850548450411752349808400e-11,2.3373245677781306601362943333814583408950e-11,2.2580017253807171106430448915269766346720e-11,2.1813708982099206392574493951206715641510e-11,2.1073407261258205098955542142847602437480e-11,2.0358229495189401717120568070133813548460e-11,1.9667323040861413890787844739452781846230e-11,1.8999864191775565069603700958886952814370e-11,1.8355057195933669132142673781677169963880e-11,1.7732133307133487050442898158767356859380e-11,1.7130349868460799296379150586773660253450e-11,1.6548989426885422860057953856183718235020e-11,1.5987358877905584225406763081671498751920e-11,1.5444788639220883638369091320374240912870e-11,1.4920631852448694218376331160795776603590e-11,1.4414263611932273164351121884461900888220e-11,1.3925080219721161352442839844358554276170e-11,1.3452498465835650521291483556901779393200e-11,1.2995954932957241192310932169509246890970e-11,1.2554905324716135415236837071402453884410e-11,1.2128823816774941081315978756500121152900e-11,1.1717202429934942448089230120289964994370e-11,1.1319550424517547072541333898332151597970e-11,1.0935393715298883855624917165523758525060e-11,1.0564274306300030600665089887099677178540e-11,1.0205749744759021594502630027119947444620e-11,9.8593925936336544555914001236327407518540e-12,9.5247899220062081219945285396091595991000e-12,9.2015428127825267134061703685321773605000e-12,8.8892658870985425401621263523881162032620e-12,8.5875868448672303303487283838932111024550e-12,8.2961460209182275509919075593913358341070e-12,8.0145959562009454523971199063367411723590e-12,7.7426009835399543289299586670120892714860e-12,7.4798368274487758756381186845368631827450e-12,7.2259902175249761122524838471721542389760e-12,6.9807585149656441264362255542087830920340e-12,6.7438493517579841606997952971809825051670e-12,6.5149802821148599810610337561773602583330e-12,6.2938784457397290363017910341435947035540e-12,6.0802802425195070491368466344230226671830e-12,5.8739310182575281886817614924228830205260e-12,5.6745847610719281005763938306045787094970e-12,5.4820038080974925090269875341169822084710e-12,5.2959585621412980133610575427479203541580e-12,5.1162272179543387254603670322705970826330e-12,4.9425954977927966816482379968210406422690e-12,4.7748563959536891811112947566153575532310e-12,4.6128099319803255567334250084551245466930e-12,4.4562629122433421292020124241542103906450e-12,4.3050286996130695544016640144302224472440e-12,4.1589269909486333522162046745501722738880e-12,4.0177836021385076026752958277303422598930e-12,3.8814302604362447233608212463104413143940e-12,3.7497044038438016335228564508586833249270e-12,3.6224489873032848345742754884988282619850e-12,3.4995122954660540107637113605121269032490e-12,3.3807477618159653551363702528090849839300e-12,3.2660137939311113032269848618564988565380e-12,3.1551736046757317418588417615730261830140e-12,3.0480950491210417780087184643810778276300e-12,2.9446504670005512318947444028089955374940e-12,2.8447165305120493021504192100111287550950e-12,2.7481740972848022057118349469061900209440e-12,2.6549080683366696204444889406213245854070e-12,2.5648072508517947962385552544940993031260e-12,2.4777642256152703428172213227597573900330e-12,2.3936752189467338016400798754630228011870e-12,2.3124399789802107843180585267818984713040e-12,2.2339616561427051055220846963775077285530e-12,2.1581466876890411320811422940096149762480e-12,2.0849046861552994797905296307678154913060e-12,2.0141483315978589808144307304095289514250e-12,1.9457932674895710872309313101135876538990e-12,1.8797580001489529509713581982355491197370e-12,1.8159638015824975252797321639393301002910e-12,1.7543346156242681895813276148159031139410e-12,1.6947969672608764595966006081425839953960e-12,1.6372798750337389943222635866013430164460e-12,1.5817147664141788787261300807412922677030e-12,1.5280353960504804196123559091043811196330e-12,1.4761777667894306676141151935912511491480e-12,1.4260800533781886527639344919071854039280e-12,1.3776825287555188381440745540353383930230e-12,1.3309274928445123654621122726939952246750e-12,1.2857592037619019684692637430978960010010e-12,1.2421238113619575204753052738954890727410e-12,1.1999692930357324956827171301941370036830e-12,1.1592453916891204789617304561668445008840e-12,1.1199035558257784607005604738172690085850e-12,1.0818968816634830993817933637825124324640e-12,1.0451800572149104163466182686913254001350e-12,1.0097093082661713950695869391262068976580e-12,9.7544234618869848334613444414065497109390e-13,9.4233831752226373850241798512988095337710e-13,9.1035775526902091893814200039055687751030e-13,8.7946253184050372743749614055104342381800e-13,8.4961581360148308472555096916809827009080e-13,8.2078201695649010516615123812865448345980e-13,7.9292676592665063001659063451858340558630e-13,7.6601685116625393996956355666489376121120e-13,7.4002019037019473610498985445122428856920e-13,7.1490579002508569323515970662117840179880e-13,6.9064370845843982889878264243260258990930e-13,6.6720502014186950479308775327737342047570e-13,6.4456178120574393026280282284091841029020e-13,6.2268699612419135200955195999944471708220e-13,6.0155458553072741237310997457223581757480e-13,5.8113935512613910385733716582737452945820e-13,5.6141696564155594706416668977980121173430e-13,5.4236390382089802535570697660327137451830e-13,5.2395745438810582219653945550720636982210e-13,5.0617567296573087514511920663374193041830e-13,4.8899735991260048360200790917042930142310e-13,4.7240203504936543791715464140382721928010e-13,4.5636991324179828165089429363629237976500e-13,4.4088188081273223868212878020842909595390e-13,4.2591947275451885164131637696414869725200e-13,4.1146485071483676561861219100799959860730e-13,3.9750078172960608909033045110543060919570e-13,3.8401061767765347173628474671354286779990e-13,3.7097827543263351819834689167416142892450e-13,3.5838821768854343373000701079871139707440e-13,3.4622543443597086316554964064213459341440e-13,3.3447542506699069611944087928852485976100e-13,3.2312418108737609374288402230703859718230e-13,3.1215816941551303925666961152884561308880e-13,3.0156431624810718906432435235655537774230e-13,2.9132999147344753744867286838788283432840e-13,2.8144299361364421128861537628529088448530e-13,2.7189153527788836018083907122020677506420e-13,2.6266422910939135368013848832152304828380e-13,2.5375007420924906743239283868838942405540e-13,2.4513844302104563546592725515599391672520e-13,2.3681906866056034471595397978043832639500e-13,2.2878203267547200486330909622235533825810e-13,2.2101775322046777442806278999580347095000e-13,2.1351697363365867395536946560736670863750e-13,2.0627075140068245950767352429600264081020e-13,1.9927044749333673493851665300388856723510e-13,1.9250771607003170061504942734230249701560e-13,1.8597449452578330172417080516619666277530e-13,1.7966299387988426531979920269096844081000e-13,1.7356568948979309867160142859528875572170e-13,1.6767531208017004222306250397779028583580e-13,1.6198483907636469223478969422374338470730e-13,1.5648748623202297891715441907536317583200e-13,1.5117669954083183828259854344879269730210e-13,1.4604614742275866812396021577455636178050e-13,1.4108971317546991431518920486871986695480e-13,1.3630148768192928319288129172465794555150e-13,1.3167576236548149602825366518346049945050e-13,1.2720702238402255666499050158886968510700e-13,1.2288994005514254504680063807523603029490e-13,1.1871936850440231741942852719643644370120e-13,1.1469033552917151676216596003179124310550e-13,1.1079803767071229163898456750621376103370e-13,1.0703783448744139455116199690188263072320e-13,1.0340524302254317801546090316709013017130e-13,9.9895932459337713933018436827427212720020e-14,9.6505718958032105598230664370017300886580e-14,9.3230560667699308793165566489889769358120e-14,9.0066552907537686633646855621069683827880e-14,8.7009923511666341240865123597070988221480e-14,8.4057028331906234517383842291455896493110e-14,8.1204346893185462753209540659132196644950e-14,7.8448478196389010032108051501952055448210e-14,7.5786136663649090385636086748453072237840e-14,7.3214148221242007925260072664775756040090e-14,7.0729446515421520231924266827850558688280e-14,6.8329069256677178686987064060510240061060e-14,6.6010154688059229140238714729876370737230e-14,6.3769938173359569868877641856176611241600e-14,6.1605748901081157530075170014013201075730e-14,5.9515006700266296108645161145020246949490e-14,5.7495218964387603288332136889342346461280e-14,5.5543977679634282222957982351574829105860e-14,5.3658956554050787948937783370097790464950e-14,5.1837908244105215047619603530544083662750e-14,5.0078661675380889982871497591619237235180e-14,4.8379119454196866289804334646315404769150e-14,4.6737255367071427258177292091258394931150e-14,4.5151111965047428182302517691130075829490e-14,4.3618798229999483495372358470220411490530e-14,4.2138487320140743789966416623918251807690e-14,4.0708414392041430374414385316522150400710e-14,3.9326874496562513198444232126617456121030e-14,3.7992220546196040452485461058530197403520e-14,3.6702861351388759963731649440961545234840e-14,3.5457259723507915173713551877511816582230e-14,3.4253930642187550037326321508749913829110e-14,3.3091439484870412355035629046825354175180e-14,3.1968400316434695346742635725267132067390e-14,3.0883474236866491100340367167814295523130e-14,2.9835367785008032283000854459869960516300e-14,2.8822831396478652693001627735881890523030e-14,2.7844657913929982558753866280362775285900e-14,2.6899681147859287958993151336906270727940e-14,2.5986774486265139730035590777072426104060e-14,2.5104849551487827604307247050977373650630e-14,2.4252854902633189511939717813679333728200e-14,2.3429774782032871040968853621071438340250e-14,2.2634627904246530782377348535582290927380e-14,2.1866466286162226275850970817106170113830e-14,2.1124374116800212988426289817301384369040e-14,2.0407466665472723616827134533097456056350e-14,1.9714889226998023438372155110374989954280e-14,1.9045816102711213962843696142501837968270e-14,1.8399449616056934426395079852238893253840e-14,1.7775019161590339598786188431583759946420e-14,1.7171780286252562100573404159185844867670e-14,1.6589013801825345432789091127125480402610e-14,1.6026024927506706082042253399398490021730e-14,1.5482142461585393695926343496044380947060e-14,1.4956717981226610240194490314536351642800e-14,1.4449125069414963610452458204014884665410e-14,1.3958758568133008333564927877722394168760e-14,1.3485033856885004357990911529040758701870e-14,1.3027386155705741788279060101401430145040e-14,1.2585269851823470791841206936645851466640e-14,1.2158157849174176598168038763054897644880e-14,1.1745540939991683143038693603823492878090e-14,1.1346927197724387963173395527269512262610e-14,1.0961841390554856798057849427431259530190e-14,1.0589824414823069318317853187622388620590e-14,1.0230432747677836758284661714421506127650e-14,9.8832379183038362746756888066697969298500e-15,9.5478259970938529139263460344800493391890e-15,9.2237971021572145504314354909870056709470e-15,8.9107649225760735635295319007768729549820e-15,8.6083562578411559935983847464154125680080e-15,8.3162105729178882619743046083967834287600e-15,8.0339795684124462525385304260801769249200e-15,7.7613267653252738512447190488859889938730e-15,7.4979271038970093861380029492977207083800e-15,7.2434665560685595386974965787313737372700e-15,6.9976417510932912381160897165641799169680e-15,6.7601596138549921541252467629396152558650e-15,6.5307370154603983651758773056361577305880e-15,6.3091004356897216567700376371286827868530e-15,6.0949856369027461461773114477614276596390e-15,5.8881373490117213892435345197441981602430e-15,5.6883089651454730850859146899255480617610e-15,5.4952622476418986851561780697751039862160e-15,5.3087670440183288305950211421436333459660e-15,5.1286010125811312664310192698300538549830e-15,4.9545493573474258952128463036118198211390e-15,4.7864045719628816370144663344596835323120e-15,4.6239661923102909933541733574583275068830e-15,4.4670405575139794561613530145932023029370e-15,4.3154405790551165123015649856901736555230e-15,4.1689855177226649029006427782970202851580e-15,4.0275007681340465333666697261602556889300e-15,3.8908176505686281319191456564086438198080e-15,3.7587732098658481809492213238409334299350e-15,3.6312100211482291908603654859304744344450e-15,3.5079760021376560916291563788961326257310e-15,3.3889242318411620838536002192260219202700e-15,3.2739127753900570899779016117763105401600e-15,3.1628045148235700311110108351843798827650e-15,3.0554669856152632715548379414871483883060e-15,2.9517722187473241711675360090374787587380e-15,2.8515965881444529275993935627705188581500e-15,2.7548206632854556618277464690131467856070e-15,2.6613290668168246192407301245398980709770e-15,2.5710103369985507842013669124040633960280e-15,2.4837567948181752482270492321173578416310e-15,2.3994644156146511990246880784853718237510e-15,2.3180327050589650449130900181213564918820e-15,2.2393645793436593667412873444817918854380e-15,2.1633662494384182898319035558274124687770e-15,2.0899471092737234741398929649976951792910e-15,2.0190196277192720110895128662730752133140e-15,1.9504992442283716736694234788099337062320e-15,1.8843042680238995860799035692740085723460e-15,1.8203557807056326712396342801773551883350e-15,1.7585775421628372326366919547604354709080e-15,1.6988958996799455943771200852726637586300e-15,1.6412397001269545578337609147931435790840e-15,1.5855402051298580735791769868072635537070e-15,1.5317310091199793578238708577360054804170e-15,1.4797479601644999390994161909276503278510e-15,1.4295290834837988954006336616321075914510e-15,1.3810145075644187875354568840950697518450e-15,1.3341463927795693299712367309438025778420e-15,1.2888688624320693553522403920431842930320e-15,1.2451279361375156872285146890619294209500e-15,1.2028714654682575805569891501191045897660e-15,1.1620490717814507475349613197892095509790e-15,1.1226120861570688707402637014334782008050e-15,1.0845134913742660207619435539510527369190e-15,1.0477078658569135405359119990881893174200e-15,1.0121513295214826306981620192933474436920e-15,9.7780149146271186835507639174552638912030e-16,9.4461739941468991967904845639856703411740e-16,9.1255949092710037683652403664583231855650e-16,8.8158954619842048546270289014891395649310e-16,8.5167064250984096808879853051585938769640e-16,8.2276711020558254674492030468630977654670e-16,7.9484449016712839961779956274963233375720e-16,7.6786949273067285013627037830096353922510e-16,7.4180995799880720559270051215054700800400e-16,7.1663481749912588772659065892561097560950e-16,6.9231405714404181132116666547895688814240e-16,6.6881868144765128326416785630536380992040e-16,6.4612067895698736319716448703543946197380e-16,6.2419298885644843455338170644413274834380e-16,6.0300946870558740755487212186524285761570e-16,5.8254486327179818111948013193232052178820e-16,5.6277477442074133953873322826224315358210e-16,5.4367563202861210848133157601623157901060e-16,5.2522466588157184678981991508141136657090e-16,5.0739987852884125808404124172218098226220e-16,4.9018001905709047248659349905272245790130e-16,4.7354455775485952934683842679988477443730e-16,4.5747366163680389616278907641892547154220e-16,4.4194817079858475204501885033223019873640e-16,
